# trajectory
# s[mm] rx[mm] ry[mm] rz[mm] px[rad] py[rad] pz[rad]
0.0000000000000000e+00 +0.0000000000000000e+00 +0.0000000000000000e+00 +0.0000000000000000e+00 +0.0000000000000000e+00 +0.0000000000000000e+00 +1.0000000000000000e+00
1.0000000000000001e-01 -1.0014664588211310e-06 +0.0000000000000000e+00 +9.9999999993313771e-02 -2.0029295978839606e-05 +0.0000000000000000e+00 +9.9999999979941367e-01
2.0000000000000001e-01 -4.0058525560696459e-06 +0.0000000000000000e+00 +1.9999999994651058e-01 -4.0058392766730884e-05 +0.0000000000000000e+00 +9.9999999919766258e-01
3.0000000000000004e-01 -9.0131383721056335e-06 +0.0000000000000000e+00 +2.9999999981947456e-01 -6.0087290352771837e-05 +0.0000000000000000e+00 +9.9999999819475871e-01
4.0000000000000002e-01 -1.6023303986198866e-05 +0.0000000000000000e+00 +3.9999999957209098e-01 -8.0115988726058208e-05 +0.0000000000000000e+00 +9.9999999679071416e-01
5.0000000000000000e-01 -2.5036329476528575e-05 +0.0000000000000000e+00 +4.9999999916424642e-01 -1.0014448787568346e-04 +0.0000000000000000e+00 +9.9999999498554071e-01
5.9999999999999998e-01 -3.6052194920183231e-05 +0.0000000000000000e+00 +5.9999999855582864e-01 -1.2017278779073880e-04 +0.0000000000000000e+00 +9.9999999277925045e-01
6.9999999999999996e-01 -4.9070880393160300e-05 +0.0000000000000000e+00 +6.9999999770672638e-01 -1.4020088846031310e-04 +0.0000000000000000e+00 +9.9999999017185537e-01
7.9999999999999993e-01 -6.4092365970366041e-05 +0.0000000000000000e+00 +7.9999999657682985e-01 -1.6022878987349303e-04 +0.0000000000000000e+00 +9.9999998716336735e-01
8.9999999999999991e-01 -8.1116631725615247e-05 +0.0000000000000000e+00 +8.9999999512603046e-01 -1.8025649201936295e-04 +0.0000000000000000e+00 +9.9999998375379839e-01
9.9999999999999989e-01 -1.0014365773163103e-04 +0.0000000000000000e+00 +9.9999999331422063e-01 -2.0028399488700494e-04 +0.0000000000000000e+00 +9.9999997994316048e-01
1.0999999999999999e+00 -1.2117341732938031e-04 +0.0000000000000000e+00 +1.0999999911012954e+00 -2.2031109654556519e-04 +0.0000000000000000e+00 +9.9999997573151000e-01
1.2000000000000000e+00 -1.4420585693607815e-04 +0.0000000000000000e+00 +1.1999999884471579e+00 -2.4033759506415201e-04 +0.0000000000000000e+00 +9.9999997111891969e-01
1.3000000000000000e+00 -1.6924091623718091e-04 +0.0000000000000000e+00 +1.2999999853117159e+00 -2.6036349043184439e-04 +0.0000000000000000e+00 +9.9999996610542574e-01
1.4000000000000001e+00 -1.9627853491705329e-04 +0.0000000000000000e+00 +1.3999999816548807e+00 -2.8038878263772482e-04 +0.0000000000000000e+00 +9.9999996069106445e-01
1.5000000000000002e+00 -2.2531865265896817e-04 +0.0000000000000000e+00 +1.4999999774365675e+00 -3.0041347167087469e-04 +0.0000000000000000e+00 +9.9999995487587190e-01
1.6000000000000003e+00 -2.5636120914510654e-04 +0.0000000000000000e+00 +1.5999999726166951e+00 -3.2043755752037424e-04 +0.0000000000000000e+00 +9.9999994865988440e-01
1.7000000000000004e+00 -2.8940614405655729e-04 +0.0000000000000000e+00 +1.6999999671551858e+00 -3.4046104017530261e-04 +0.0000000000000000e+00 +9.9999994204313825e-01
1.8000000000000005e+00 -3.2445339707331725e-04 +0.0000000000000000e+00 +1.7999999610119652e+00 -3.6048391962473800e-04 +0.0000000000000000e+00 +9.9999993502566964e-01
1.9000000000000006e+00 -3.6150290787429103e-04 +0.0000000000000000e+00 +1.8999999541469634e+00 -3.8050619585775739e-04 +0.0000000000000000e+00 +9.9999992760751477e-01
2.0000000000000004e+00 -4.0055461613729072e-04 +0.0000000000000000e+00 +1.9999999465201133e+00 -4.0052786886343673e-04 +0.0000000000000000e+00 +9.9999991978870983e-01
2.1000000000000005e+00 -4.4160845451453985e-04 +0.0000000000000000e+00 +2.0999999380913543e+00 -4.2054872789592840e-04 +0.0000000000000000e+00 +9.9999991156937973e-01
2.2000000000000006e+00 -4.8466432755916474e-04 +0.0000000000000000e+00 +2.1999999288206431e+00 -4.4056856220910893e-04 +0.0000000000000000e+00 +9.9999990294966623e-01
2.3000000000000007e+00 -5.2972213279868909e-04 +0.0000000000000000e+00 +2.2999999186679436e+00 -4.6058737179211379e-04 +0.0000000000000000e+00 +9.9999989392963085e-01
2.4000000000000008e+00 -5.7678176775955423e-04 +0.0000000000000000e+00 +2.3999999075932270e+00 -4.8060515663412185e-04 +0.0000000000000000e+00 +9.9999988450933508e-01
2.5000000000000009e+00 -6.2584312996711970e-04 +0.0000000000000000e+00 +2.4999998955564706e+00 -5.0062191672431780e-04 +0.0000000000000000e+00 +9.9999987468884044e-01
2.6000000000000010e+00 -6.7690611694566378e-04 +0.0000000000000000e+00 +2.5999998825176571e+00 -5.2063765205189242e-04 +0.0000000000000000e+00 +9.9999986446820854e-01
2.7000000000000011e+00 -7.2997062621838404e-04 +0.0000000000000000e+00 +2.6999998684367763e+00 -5.4065236260604217e-04 +0.0000000000000000e+00 +9.9999985384750079e-01
2.8000000000000012e+00 -7.8503655530739807e-04 +0.0000000000000000e+00 +2.7999998532738233e+00 -5.6066604837596949e-04 +0.0000000000000000e+00 +9.9999984282677878e-01
2.9000000000000012e+00 -8.4210380173374403e-04 +0.0000000000000000e+00 +2.8999998369888003e+00 -5.8067870935088256e-04 +0.0000000000000000e+00 +9.9999983140610404e-01
3.0000000000000013e+00 -9.0117226301738120e-04 +0.0000000000000000e+00 +2.9999998195417144e+00 -6.0069034551999561e-04 +0.0000000000000000e+00 +9.9999981958553807e-01
3.1000000000000014e+00 -9.6224182915631735e-04 +0.0000000000000000e+00 +3.0999998008925846e+00 -6.2070073124619182e-04 +0.0000000000000000e+00 +9.9999980736528249e-01
3.2000000000000015e+00 -1.0253123600639019e-03 +0.0000000000000000e+00 +3.1999997810014551e+00 -6.4070964089099527e-04 +0.0000000000000000e+00 +9.9999979474555689e-01
3.3000000000000016e+00 -1.0903837081314325e-03 +0.0000000000000000e+00 +3.2999997598283834e+00 -6.6071707444327957e-04 +0.0000000000000000e+00 +9.9999978172644988e-01
3.4000000000000017e+00 -1.1574557257491075e-03 +0.0000000000000000e+00 +3.3999997373334354e+00 -6.8072303189204981e-04 +0.0000000000000000e+00 +9.9999976830805004e-01
3.5000000000000018e+00 -1.2265282653060254e-03 +0.0000000000000000e+00 +3.4999997134766865e+00 -7.0072751322630699e-04 +0.0000000000000000e+00 +9.9999975449044587e-01
3.6000000000000019e+00 -1.2976011791901848e-03 +0.0000000000000000e+00 +3.5999996882182206e+00 -7.2073051843504754e-04 +0.0000000000000000e+00 +9.9999974027372607e-01
3.7000000000000020e+00 -1.3706743197884840e-03 +0.0000000000000000e+00 +3.6999996615181305e+00 -7.4073204750726399e-04 +0.0000000000000000e+00 +9.9999972565797912e-01
3.8000000000000020e+00 -1.4457475394867199e-03 +0.0000000000000000e+00 +3.7999996333365185e+00 -7.6073210043194441e-04 +0.0000000000000000e+00 +9.9999971064329363e-01
3.9000000000000021e+00 -1.5228206906695880e-03 +0.0000000000000000e+00 +3.8999996036334945e+00 -7.8073067719807278e-04 +0.0000000000000000e+00 +9.9999969522975818e-01
4.0000000000000018e+00 -1.6018936257206821e-03 +0.0000000000000000e+00 +3.9999995723691781e+00 -8.0072777779462872e-04 +0.0000000000000000e+00 +9.9999967941746137e-01
4.1000000000000014e+00 -1.6829661888028708e-03 +0.0000000000000000e+00 +4.0999995395037043e+00 -8.2072315562156239e-04 +0.0000000000000000e+00 +9.9999966320669398e-01
4.2000000000000011e+00 -1.7660381911992291e-03 +0.0000000000000000e+00 +4.1999995049972449e+00 -8.4071656407588749e-04 +0.0000000000000000e+00 +9.9999964659776674e-01
4.3000000000000007e+00 -1.8511094359719271e-03 +0.0000000000000000e+00 +4.2999994688099896e+00 -8.6070800314657552e-04 +0.0000000000000000e+00 +9.9999962959079780e-01
4.4000000000000004e+00 -1.9381797261820673e-03 +0.0000000000000000e+00 +4.3999994309021400e+00 -8.8069747282295825e-04 +0.0000000000000000e+00 +9.9999961218590527e-01
4.5000000000000000e+00 -2.0272488648896865e-03 +0.0000000000000000e+00 +4.4999993912339100e+00 -9.0068497309437603e-04 +0.0000000000000000e+00 +9.9999959438320718e-01
4.5999999999999996e+00 -2.1183166551537553e-03 +0.0000000000000000e+00 +4.5999993497655254e+00 -9.2067050395017787e-04 +0.0000000000000000e+00 +9.9999957618282154e-01
4.6999999999999993e+00 -2.2113829000321803e-03 +0.0000000000000000e+00 +4.6999993064572223e+00 -9.4065406537972146e-04 +0.0000000000000000e+00 +9.9999955758486658e-01
4.7999999999999989e+00 -2.3064474025818035e-03 +0.0000000000000000e+00 +4.7999992612692504e+00 -9.6063565737237306e-04 +0.0000000000000000e+00 +9.9999953858946022e-01
4.8999999999999986e+00 -2.4035099658584044e-03 +0.0000000000000000e+00 +4.8999992141618698e+00 -9.8061527991750758e-04 +0.0000000000000000e+00 +9.9999951919672059e-01
4.9999999999999982e+00 -2.5025703929167004e-03 +0.0000000000000000e+00 +4.9999991650953541e+00 -1.0005929330045087e-03 +0.0000000000000000e+00 +9.9999949940676569e-01
5.0999999999999979e+00 -2.6036284776635656e-03 +0.0000000000000000e+00 +5.0999991140299956e+00 -1.0205683422185377e-03 +0.0000000000000000e+00 +9.9999947921999355e-01
5.1999999999999975e+00 -2.7066839774172288e-03 +0.0000000000000000e+00 +5.1999990609261388e+00 -1.0405412331379543e-03 +0.0000000000000000e+00 +9.9999945863682427e-01
5.2999999999999972e+00 -2.8117366403476274e-03 +0.0000000000000000e+00 +5.2999990057441515e+00 -1.0605116057515005e-03 +0.0000000000000000e+00 +9.9999943765740862e-01
5.3999999999999968e+00 -2.9187862146236505e-03 +0.0000000000000000e+00 +5.3999989484444173e+00 -1.0804794600486932e-03 +0.0000000000000000e+00 +9.9999941628189759e-01
5.4999999999999964e+00 -3.0278324484131385e-03 +0.0000000000000000e+00 +5.4999988889873332e+00 -1.1004447960190613e-03 +0.0000000000000000e+00 +9.9999939451044184e-01
5.5999999999999961e+00 -3.1388750898828865e-03 +0.0000000000000000e+00 +5.5999988273333123e+00 -1.1204076136521453e-03 +0.0000000000000000e+00 +9.9999937234319236e-01
5.6999999999999957e+00 -3.2519138871986430e-03 +0.0000000000000000e+00 +5.6999987634427836e+00 -1.1403679129374971e-03 +0.0000000000000000e+00 +9.9999934978029992e-01
5.7999999999999954e+00 -3.3669485885251134e-03 +0.0000000000000000e+00 +5.7999986972761892e+00 -1.1603256938646806e-03 +0.0000000000000000e+00 +9.9999932682191528e-01
5.8999999999999950e+00 -3.4839789420259594e-03 +0.0000000000000000e+00 +5.8999986287939885e+00 -1.1802809564232712e-03 +0.0000000000000000e+00 +9.9999930346818910e-01
5.9999999999999947e+00 -3.6030046958638010e-03 +0.0000000000000000e+00 +5.9999985579566539e+00 -1.2002337006028559e-03 +0.0000000000000000e+00 +9.9999927971927227e-01
6.0999999999999943e+00 -3.7240255878741180e-03 +0.0000000000000000e+00 +6.0999984847246873e+00 -1.2201836166085597e-03 +0.0000000000000000e+00 +9.9999925557569347e-01
6.1999999999999940e+00 -3.8470413145860506e-03 +0.0000000000000000e+00 +6.1999984090586562e+00 -1.2401303946318859e-03 +0.0000000000000000e+00 +9.9999923103800614e-01
6.2999999999999936e+00 -3.9720515622006757e-03 +0.0000000000000000e+00 +6.2999983309191583e+00 -1.2600740346606137e-03 +0.0000000000000000e+00 +9.9999920610639814e-01
6.3999999999999932e+00 -4.0990560169179959e-03 +0.0000000000000000e+00 +6.3999982502668118e+00 -1.2800145366840155e-03 +0.0000000000000000e+00 +9.9999918078105710e-01
6.4999999999999929e+00 -4.2280543649369437e-03 +0.0000000000000000e+00 +6.4999981670622518e+00 -1.2999519006913665e-03 +0.0000000000000000e+00 +9.9999915506217074e-01
6.5999999999999925e+00 -4.3590462924553769e-03 +0.0000000000000000e+00 +6.5999980812661336e+00 -1.3198861266719459e-03 +0.0000000000000000e+00 +9.9999912894992671e-01
6.6999999999999922e+00 -4.4920314856700828e-03 +0.0000000000000000e+00 +6.6999979928391316e+00 -1.3398172146150359e-03 +0.0000000000000000e+00 +9.9999910244451262e-01
6.7999999999999918e+00 -4.6270096307767768e-03 +0.0000000000000000e+00 +6.7999979017419374e+00 -1.3597451645099223e-03 +0.0000000000000000e+00 +9.9999907554611622e-01
6.8999999999999915e+00 -4.7639804139701031e-03 +0.0000000000000000e+00 +6.8999978079352617e+00 -1.3796699763458941e-03 +0.0000000000000000e+00 +9.9999904825492503e-01
6.9999999999999911e+00 -4.9029435214436347e-03 +0.0000000000000000e+00 +6.9999977113798355e+00 -1.3995916501122444e-03 +0.0000000000000000e+00 +9.9999902057112655e-01
7.0999999999999908e+00 -5.0438986276030552e-03 +0.0000000000000000e+00 +7.0999976120364234e+00 -1.4195098321910361e-03 +0.0000000000000000e+00 +9.9999899249541035e-01
7.1999999999999904e+00 -5.1868453597041109e-03 +0.0000000000000000e+00 +7.1999975098658773e+00 -1.4394241689406075e-03 +0.0000000000000000e+00 +9.9999896402849409e-01
7.2999999999999901e+00 -5.3317833332131173e-03 +0.0000000000000000e+00 +7.2999974048290897e+00 -1.4593346603484028e-03 +0.0000000000000000e+00 +9.9999893517060734e-01
7.3999999999999897e+00 -5.4787121635954047e-03 +0.0000000000000000e+00 +7.3999972968869745e+00 -1.4792413064045849e-03 +0.0000000000000000e+00 +9.9999890592197993e-01
7.4999999999999893e+00 -5.6276314663153207e-03 +0.0000000000000000e+00 +7.4999971860004688e+00 -1.4991441070993383e-03 +0.0000000000000000e+00 +9.9999887628284145e-01
7.5999999999999890e+00 -5.7785408568362317e-03 +0.0000000000000000e+00 +7.5999970721305337e+00 -1.5190430624228677e-03 +0.0000000000000000e+00 +9.9999884625342139e-01
7.6999999999999886e+00 -5.9314399506205278e-03 +0.0000000000000000e+00 +7.6999969552381513e+00 -1.5389381723653998e-03 +0.0000000000000000e+00 +9.9999881583394945e-01
7.7999999999999883e+00 -6.0863283631296203e-03 +0.0000000000000000e+00 +7.7999968352843290e+00 -1.5588294369171818e-03 +0.0000000000000000e+00 +9.9999878502465500e-01
7.8999999999999879e+00 -6.2432057098239478e-03 +0.0000000000000000e+00 +7.8999967122300960e+00 -1.5787168560684819e-03 +0.0000000000000000e+00 +9.9999875382576753e-01
7.9999999999999876e+00 -6.4020716061629771e-03 +0.0000000000000000e+00 +7.9999965860365041e+00 -1.5986004298095898e-03 +0.0000000000000000e+00 +9.9999872223751640e-01
8.0999999999999872e+00 -6.5629256541346421e-03 +0.0000000000000000e+00 +8.0999964566646501e+00 -1.6184797540093596e-03 +0.0000000000000000e+00 +9.9999869026078503e-01
8.1999999999999869e+00 -6.7257674018408858e-03 +0.0000000000000000e+00 +8.1999963240757427e+00 -1.6383544244948295e-03 +0.0000000000000000e+00 +9.9999865789648901e-01
8.2999999999999865e+00 -6.8905963839093008e-03 +0.0000000000000000e+00 +8.2999961882310380e+00 -1.6582244412510759e-03 +0.0000000000000000e+00 +9.9999862514490589e-01
8.3999999999999861e+00 -7.0574121349664494e-03 +0.0000000000000000e+00 +8.3999960490918237e+00 -1.6780898042677837e-03 +0.0000000000000000e+00 +9.9999859200631303e-01
8.4999999999999858e+00 -7.2262141896378626e-03 +0.0000000000000000e+00 +8.4999959066194108e+00 -1.6979505135346468e-03 +0.0000000000000000e+00 +9.9999855848098762e-01
8.5999999999999854e+00 -7.3970020825480411e-03 +0.0000000000000000e+00 +8.5999957607751405e+00 -1.7178065690413686e-03 +0.0000000000000000e+00 +9.9999852456920701e-01
8.6999999999999851e+00 -7.5697753483204558e-03 +0.0000000000000000e+00 +8.6999956115203805e+00 -1.7376579707776610e-03 +0.0000000000000000e+00 +9.9999849027124843e-01
8.7999999999999847e+00 -7.7445335215775499e-03 +0.0000000000000000e+00 +8.7999954588165270e+00 -1.7575047187332457e-03 +0.0000000000000000e+00 +9.9999845558738898e-01
8.8999999999999844e+00 -7.9212761369407397e-03 +0.0000000000000000e+00 +8.8999953026250047e+00 -1.7773468128978529e-03 +0.0000000000000000e+00 +9.9999842051790577e-01
8.9999999999999840e+00 -8.1000027290304127e-03 +0.0000000000000000e+00 +8.9999951429072631e+00 -1.7971842532612222e-03 +0.0000000000000000e+00 +9.9999838506307570e-01
9.0999999999999837e+00 -8.2807128169751117e-03 +0.0000000000000000e+00 +9.0999949796248121e+00 -1.8170165750809070e-03 +0.0000000000000000e+00 +9.9999834922402020e-01
9.1999999999999833e+00 -8.4634058579345552e-03 +0.0000000000000000e+00 +9.1999948127392983e+00 -1.8368433135469524e-03 +0.0000000000000000e+00 +9.9999831300189757e-01
9.2999999999999829e+00 -8.6480812935721321e-03 +0.0000000000000000e+00 +9.2999946422124324e+00 -1.8566644686419120e-03 +0.0000000000000000e+00 +9.9999827639703986e-01
9.3999999999999826e+00 -8.8347385655502386e-03 +0.0000000000000000e+00 +9.3999944680059588e+00 -1.8764800403558795e-03 +0.0000000000000000e+00 +9.9999823940977906e-01
9.4999999999999822e+00 -9.0233771155302789e-03 +0.0000000000000000e+00 +9.4999942900816521e+00 -1.8962900286789623e-03 +0.0000000000000000e+00 +9.9999820204044709e-01
9.5999999999999819e+00 -9.2139963851726719e-03 +0.0000000000000000e+00 +9.5999941084013223e+00 -1.9160944336012828e-03 +0.0000000000000000e+00 +9.9999816428937571e-01
9.6999999999999815e+00 -9.4065958161368476e-03 +0.0000000000000000e+00 +9.6999939229268133e+00 -1.9358932551129778e-03 +0.0000000000000000e+00 +9.9999812615689665e-01
9.7999999999999812e+00 -9.6011748500812507e-03 +0.0000000000000000e+00 +9.7999937336199991e+00 -1.9556864932041983e-03 +0.0000000000000000e+00 +9.9999808764334153e-01
9.8999999999999808e+00 -9.7977329286633424e-03 +0.0000000000000000e+00 +9.8999935404427895e+00 -1.9754741478651100e-03 +0.0000000000000000e+00 +9.9999804874904175e-01
9.9999999999999805e+00 -9.9962694935396019e-03 +0.0000000000000000e+00 +9.9999933433571275e+00 -1.9952562190858930e-03 +0.0000000000000000e+00 +9.9999800947432893e-01
1.0099999999999980e+01 -1.0196783968558666e-02 +0.0000000000000000e+00 +1.0099993142325022e+01 -2.0150321726391971e-03 +0.0000000000000000e+00 +9.9999796982061073e-01
1.0199999999999980e+01 -1.0399275706333675e-02 +0.0000000000000000e+00 +1.0199992937308664e+01 -2.0348014741913617e-03 +0.0000000000000000e+00 +9.9999792978933733e-01
1.0299999999999979e+01 -1.0603744041662866e-02 +0.0000000000000000e+00 +1.0299992728270318e+01 -2.0545641237213167e-03 +0.0000000000000000e+00 +9.9999788938090328e-01
1.0399999999999979e+01 -1.0810188309343558e-02 +0.0000000000000000e+00 +1.0399992515172286e+01 -2.0743201212198702e-03 +0.0000000000000000e+00 +9.9999784859570295e-01
1.0499999999999979e+01 -1.1018607844172154e-02 +0.0000000000000000e+00 +1.0499992297976913e+01 -2.0940694666778544e-03 +0.0000000000000000e+00 +9.9999780743413058e-01
1.0599999999999978e+01 -1.1229001980944139e-02 +0.0000000000000000e+00 +1.0599992076646581e+01 -2.1138121600861228e-03 +0.0000000000000000e+00 +9.9999776589658018e-01
1.0699999999999978e+01 -1.1441370054454085e-02 +0.0000000000000000e+00 +1.0699991851143711e+01 -2.1335482014355534e-03 +0.0000000000000000e+00 +9.9999772398344577e-01
1.0799999999999978e+01 -1.1655711399495653e-02 +0.0000000000000000e+00 +1.0799991621430765e+01 -2.1532775907170459e-03 +0.0000000000000000e+00 +9.9999768169512127e-01
1.0899999999999977e+01 -1.1872025350861595e-02 +0.0000000000000000e+00 +1.0899991387470243e+01 -2.1730003279215237e-03 +0.0000000000000000e+00 +9.9999763903200023e-01
1.0999999999999977e+01 -1.2090311243343756e-02 +0.0000000000000000e+00 +1.0999991149224686e+01 -2.1927164130399334e-03 +0.0000000000000000e+00 +9.9999759599447624e-01
1.1099999999999977e+01 -1.2310568391369630e-02 +0.0000000000000000e+00 +1.1099990906656716e+01 -2.2124252351417529e-03 +0.0000000000000000e+00 +9.9999755258429435e-01
1.1199999999999976e+01 -1.2532796027901178e-02 +0.0000000000000000e+00 +1.1199990659729181e+01 -2.2321261831337548e-03 +0.0000000000000000e+00 +9.9999750880324811e-01
1.1299999999999976e+01 -1.2756993365525129e-02 +0.0000000000000000e+00 +1.1299990408405018e+01 -2.2518192569881842e-03 +0.0000000000000000e+00 +9.9999746465180284e-01
1.1399999999999975e+01 -1.2983159616827238e-02 +0.0000000000000000e+00 +1.1399990152647209e+01 -2.2715044566953262e-03 +0.0000000000000000e+00 +9.9999742013042370e-01
1.1499999999999975e+01 -1.3211293994392293e-02 +0.0000000000000000e+00 +1.1499989892418787e+01 -2.2911817822454800e-03 +0.0000000000000000e+00 +9.9999737523957566e-01
1.1599999999999975e+01 -1.3441395710804112e-02 +0.0000000000000000e+00 +1.1599989627682826e+01 -2.3108512336289574e-03 +0.0000000000000000e+00 +9.9999732997972346e-01
1.1699999999999974e+01 -1.3673463978645540e-02 +0.0000000000000000e+00 +1.1699989358402448e+01 -2.3305128108360839e-03 +0.0000000000000000e+00 +9.9999728435133184e-01
1.1799999999999974e+01 -1.3907498010498461e-02 +0.0000000000000000e+00 +1.1799989084540822e+01 -2.3501665138571989e-03 +0.0000000000000000e+00 +9.9999723835486520e-01
